P (Pa) ,nexc (mol/kg)
118958.4,18.083239
143670.52,19.396044
168382.64,20.708849
188936.34,22.046873
221924.19,23.561674
263216.53,25.10177
308667.25,26.616646
362447.16,28.005356
474280.38,30.050743
665008.3,32.323795
893198.9,34.14269
1221146,35.63402
1661337.2,36.646404
2193050.5,36.87679
2699903.8,36.703133
3352264.2,35.87402
3967248.2,34.968956
4573956.5,33.861893
5168227,32.603294
