t (s),P (Pa),T (K)
52.229298,3333023.2,300.0225
109.55414,3012093,299.08368
173.24841,2714418.5,298.0922
233.75797,2435348.8,296.10474
297.45224,2165581.5,294.6412
351.59235,1909767.5,293.12576
415.28662,1667907,291.08502
475.79617,1458604.6,288.99295
533.12103,1263255.9,287.05795
596.8153,1077209.2,284.59818
660.5096,928372.06,282.6629
717.8344,774883.75,280.04523
771.97455,653953.5,277.53302
835.66876,514418.6,274.6545
899.36304,416744.2,272.14175
959.8726,342325.6,269.5771
