P (Pa) ,nexc (mol/kg)
29508.197,28.971193
150819.67,35.102882
370491.8,39.30041
619672.1,41.934155
862295.06,42.839508
1216393.5,42.798355
1511475.4,42.098766
1757377,40.53498
2062295.1,38.271606
2304918,35.84362
2583606.5,32.674896
2950819.8,28.477365
3478688.5,24.73251
3688524.5,23.539095
3901639.2,22.757202
4150819.8,21.97531
4426229.5,21.11111
4737705,20.493828
5039344.5,19.62963
5472131,19.300411
