P (Pa) ,nexc (mol/kg)
129909.15,1.8518045
158902.95,2.3820899
196197.12,2.962912
245945.98,3.594296
303982.88,4.3519464
374478.6,5.1349154
498885.66,6.498806
698008.44,8.241797
951104.25,10.187059
1299740.8,12.183383
1785444.4,14.33199
2300314.5,15.950662
2819392.2,17.241194
3458969.2,18.380991
4111071,19.142212
4725812.5,19.726505
5319824,20.058239
5851541,20.263382
6080023.5,20.289999
6200490,20.34121
