P (Pa) ,nexc (mol/kg)
396034.9,0.3135571
549715.2,0.49118447
807248.8,0.6946795
1147839.8,1.0753775
1617201.5,1.5325795
2223647,2.0410922
2776090.5,2.5240371
3557012.2,3.058842
4254852.5,3.567904
4994252,3.9762423
5654719.5,4.384106
6011960.5,4.5629573
6169807.5,4.6648793
6236272,4.690522
