P (Pa) ,nexc (mol/kg)
178688.53,3.8888888
195901.64,4.4444447
220491.8,4.9691358
323770.5,6.3271604
404918.03,7.4691358
459016.4,7.808642
550000,8.425926
668032.8,9.228395
827868.9,10.401235
1012295.06,11.141975
1317213.1,12.376543
1663934.4,13.580247
2123770.5,14.290123
2490164,15.092592
2861475.5,15.864198
3262295,16.17284
3687705,16.728395
4000000,17.006172
4425410,17.160494
4831147.5,17.376543
5192623,17.438272
5595901.5,17.592592
