P (Pa) ,nexc (mol/kg)
503278.7,0.89506173
813114.75,1.2654321
1194262.2,2.0987654
1580327.9,2.5
1983606.5,2.808642
2379508.2,3.2098765
2755737.8,3.6419754
3188524.5,3.9814816
3579508.2,4.382716
4041803.2,4.814815
4445082,4.814815
4900000,5.154321
5305737.5,5.5864196
5760655.5,5.617284
