P (Pa) ,nexc (mol/kg)
161475.4,9.41358
237704.92,10.462963
304098.38,11.820988
375409.84,12.716049
444262.28,13.209877
518032.78,13.981482
601639.4,14.783951
685245.9,15.617284
840163.94,16.75926
1027049.2,17.5
1282786.9,18.24074
1614754.1,19.382715
2050000,20.246914
2507377,20.987654
3001639.2,21.38889
3459016.5,21.728395
3955737.8,22.098766
4442623,22.098766
4934426,22.098766
5433606.5,22.098766
