t (s),P (Pa)
0,32000
199.98491,1750607.1
404.5152,3541691
595.50775,5454259.5
813.7112,7457866.5
1009.0686,8965568
1208.2864,8823464
1412.0619,8752201
1597.7378,8721461
1796.9966,8680572
2009.8546,8670020
2200.0637,8649392
2399.3306,8628745
2607.6638,8628324
2793.348,8617826
3001.6729,8597162
3187.3652,8606907
3400.2314,8616598
3599.515,8636437
3798.7778,8605670
4006.2947,6591079.5
4200.2285,4586639
4403.274,2713758.2
4592.7896,982605.6
